kl911
Integration time [ms]:  15,000
Averaging Nr. [scans]: 10
Smoothing Nr. [pixels]: 0
Data measured with spectrometer [name]: 1204091U1
Wave   ;Sample   ;Dark     ;Reference;Reflectance
[nm]   ;[counts] ;[counts] ;[counts] ;[%]

1014,48; 5735,000; 2348,500;19637,500;19,58760
1019,01; 5923,200; 2352,700;20829,700;19,32402
1023,54; 6118,200; 2377,000;21962,200;19,10218
1028,07; 6252,900; 2352,700;23028,700;18,86342
1032,59; 6419,600; 2345,300;24165,800;18,67189
1037,10; 6624,800; 2317,300;25614,800;18,48911
1041,62; 6809,900; 2350,000;26799,400;18,24135
1046,12; 7061,600; 2427,500;28080,800;18,06434
1050,62; 7092,000; 2344,700;28925,600;17,85982
1055,12; 7157,700; 2300,600;29808,600;17,65705
1059,62; 7260,800; 2304,000;30750,500;17,42499
1064,10; 7448,600; 2352,400;31934,300;17,22743
1068,59; 7554,700; 2395,400;32879,900;16,92434
1073,07; 7596,800; 2329,700;33988,100;16,63729
1077,54; 7652,300; 2333,200;34909,400;16,32818
1082,01; 7791,700; 2383,100;36084,400;16,04864
1086,48; 7879,100; 2367,300;37013,200;15,90895
1090,94; 7910,400; 2303,100;37697,100;15,84252
1095,39; 8222,400; 2435,000;38991,300;15,83147
1099,85; 8323,400; 2333,800;40179,000;15,82658
1104,29; 8482,200; 2343,900;41108,400;15,83485
1108,73; 8600,400; 2303,100;42037,300;15,84856
1113,17; 8812,500; 2407,700;42761,500;15,87162
1117,61; 8889,100; 2355,500;43454,900;15,89707
1122,03; 9019,400; 2409,900;44116,600;15,84757
1126,46; 9010,300; 2310,600;44683,800;15,81117
1130,88; 9059,600; 2301,200;45196,100;15,75572
1135,29; 9206,800; 2423,100;45857,400;15,61830
1139,70; 9125,400; 2288,100;46461,700;15,47825
1144,11; 9142,200; 2306,000;47061,800;15,27444
1148,51; 9118,800; 2313,600;47677,600;15,00132
1152,90; 9068,800; 2332,800;47946,200;14,76759
1157,29; 8984,600; 2292,900;48421,700;14,50656
1161,68; 8871,200; 2313,100;48619,300;14,16247
1166,06; 8727,800; 2309,600;48732,900;13,82539
1170,44; 8645,400; 2366,100;48547,000;13,59718
1174,81; 8388,100; 2318,600;47745,300;13,36109
1179,18; 8225,600; 2329,700;47463,900;13,06304
1183,54; 8009,900; 2345,800;47060,900;12,66709
1187,90; 7846,100; 2377,500;46950,700;12,26881
1192,25; 7555,500; 2344,700;46149,700;11,89545
1196,60; 7264,100; 2296,300;45763,400;11,42887
1200,94; 7058,800; 2354,600;45323,500;10,94792
1205,28; 6780,400; 2332,300;44562,200;10,53306
1209,62; 6622,700; 2337,500;44056,300;10,27163
1213,95; 6592,700; 2380,000;43765,500;10,17917
1218,27; 6553,400; 2311,400;43022,100;10,41987
1222,59; 6710,600; 2400,700;42056,700;10,86822
1226,91; 6809,700; 2335,900;41649,600;11,37975
1231,22; 6846,200; 2314,200;40767,800;11,78563
1235,52; 6808,900; 2271,300;39901,100;12,05853
1239,82; 6855,600; 2322,400;39388,100;12,23018
1244,12; 6779,400; 2318,100;38438,000;12,35136
1248,41; 6766,200; 2354,100;37852,300;12,42908
1252,70; 6582,200; 2253,500;37010,900;12,45404
1256,98; 6593,400; 2299,300;36667,700;12,49433
1261,26; 6587,000; 2367,800;36177,100;12,47941
1265,53; 6360,600; 2238,400;35319,900;12,46074
1269,80; 6359,700; 2285,700;34968,200;12,46539
1274,06; 6329,000; 2342,500;34372,200;12,44626
1278,32; 6216,300; 2321,300;33766,300;12,38671
1282,57; 6156,200; 2318,100;33423,400;12,33905
1286,82; 6059,100; 2307,600;32829,200;12,29130
1291,06; 6020,800; 2356,700;32275,900;12,24665
1295,30; 5938,700; 2338,100;31892,600;12,18292
1299,53; 5893,500; 2338,200;31647,500;12,13028
1303,76; 5791,200; 2323,600;31079,700;12,05866
1307,99; 5766,500; 2367,800;30595,000;12,04051
1312,20; 5671,800; 2359,900;30024,100;11,97179
1316,42; 5471,300; 2280,800;29032,600;11,92630
1320,63; 5410,200; 2300,900;28458,500;11,88679
1324,83; 5268,800; 2245,000;27777,100;11,84313
1329,03; 5241,300; 2317,800;27170,400;11,76336
1333,23; 5131,500; 2274,500;26672,500;11,70998
1337,42; 5121,000; 2337,300;26255,200;11,63856
1341,60; 4977,100; 2270,000;25620,600;11,59328
1345,78; 4947,800; 2322,700;25115,000;11,51749
1349,96; 4784,800; 2241,600;24490,500;11,43068
1354,13; 4708,600; 2280,700;23745,200;11,31123
1358,29; 4588,600; 2244,300;23082,400;11,25007
1362,46; 4548,500; 2319,600;22366,700;11,11832
1366,61; 4455,800; 2323,300;21817,100;10,93938
1370,76; 4288,900; 2261,900;21157,200;10,72754
1374,91; 4284,100; 2372,400;20568,000;10,50639
1379,05; 4089,100; 2274,100;19879,800;10,30916
1383,18; 4147,700; 2400,400;19767,200;10,06115
1387,32; 3939,500; 2240,200;19676,200; 9,74593
1391,44; 3935,800; 2273,200;19905,300; 9,42939
1395,56; 4092,400; 2416,900;20153,000; 9,44683
1399,68; 3930,200; 2211,300;20249,800; 9,52906
1403,79; 4000,100; 2272,300;20517,600; 9,46984
1407,90; 3947,500; 2245,600;20456,300; 9,34560
1412,00; 3967,300; 2271,700;20615,900; 9,24325
1416,10; 3989,600; 2318,300;20574,800; 9,15455
1420,19; 3931,000; 2266,200;20394,400; 9,18348
1424,27; 3951,300; 2289,200;20322,000; 9,21709
1428,36; 3965,000; 2300,300;20186,500; 9,30718
1432,43; 3975,000; 2322,800;20034,000; 9,32856
1436,50; 3906,700; 2262,400;19772,900; 9,39037
1440,57; 3959,400; 2312,900;19797,100; 9,41707
1444,63; 3920,100; 2279,300;19549,200; 9,50092
1448,69; 3877,600; 2235,800;19361,400; 9,58682
1452,74; 3909,500; 2272,400;19303,800; 9,61225
1456,79; 3869,400; 2232,800;19131,100; 9,68500
1460,83; 3892,100; 2263,600;18961,800; 9,75255
1464,87; 3957,600; 2350,200;18781,300; 9,78267
1468,90; 3934,100; 2310,200;18791,500; 9,85298
1472,93; 3915,400; 2306,900;18491,800; 9,93828
1476,95; 3902,800; 2315,800;18328,800; 9,91070
1480,96; 3858,700; 2282,900;18145,100; 9,93431
1484,98; 3861,700; 2291,100;18038,800; 9,97352
1488,98; 3843,500; 2297,500;17808,200; 9,96731
1492,98; 3830,700; 2311,900;17607,700; 9,92952
1496,98; 3782,900; 2283,500;17361,700; 9,94416
1500,97; 3792,100; 2313,000;17233,100; 9,91347
1504,96; 3691,900; 2226,000;17033,400; 9,89978
1508,94; 3758,900; 2304,800;17050,500; 9,86118
1512,92; 3676,600; 2244,700;16883,900; 9,78127
1516,89; 3678,600; 2245,000;16798,700; 9,85042
1520,85; 3669,000; 2249,200;16740,000; 9,79794
1524,81; 3746,400; 2344,200;16642,100; 9,80703
1528,77; 3629,800; 2238,800;16473,000; 9,77224
1532,72; 3638,900; 2252,300;16334,200; 9,84668
1536,67; 3702,500; 2346,800;16198,700; 9,78711
1540,61; 3594,700; 2261,900;15919,100; 9,75895
1544,54; 3634,900; 2298,100;15815,100; 9,88977
1548,47; 3553,100; 2230,000;15593,800; 9,90063
1552,40; 3583,100; 2281,600;15410,700; 9,91309
1556,32; 3568,700; 2276,600;15285,000; 9,93281
1560,23; 3533,700; 2270,100;14999,600; 9,92655
1564,15; 3544,200; 2284,800;14941,900; 9,95015
1568,05; 3506,600; 2254,700;14763,000;10,00855
1571,95; 3520,500; 2299,800;14583,200; 9,93780
1575,84; 3469,700; 2264,700;14396,200; 9,93282
1579,73; 3463,800; 2278,600;14216,200; 9,92829
1583,62; 3451,000; 2291,000;14037,500; 9,87528
1587,50; 3382,200; 2227,300;13824,900; 9,95809
1591,37; 3474,000; 2341,500;13765,300; 9,91351
1595,24; 3413,200; 2290,900;13552,200; 9,96599
1599,11; 3315,100; 2218,500;13299,400; 9,89631
1602,96; 3320,900; 2233,800;13148,300; 9,96014
1606,82; 3262,500; 2199,200;12931,900; 9,90711
1610,67; 3306,000; 2259,900;12768,200; 9,95499
1614,51; 3289,200; 2253,600;12662,100; 9,94956
1618,35; 3218,300; 2200,500;12443,200; 9,93683
1622,18; 3268,100; 2259,000;12320,000;10,02982
1626,01; 3245,100; 2261,500;12204,900; 9,89199
1629,83; 3234,200; 2264,200;12060,300; 9,90190
1633,65; 3245,600; 2285,600;11926,300; 9,95778
1637,46; 3172,200; 2232,700;11710,000; 9,91316
1641,27; 3167,800; 2240,500;11611,900; 9,89500
1645,07; 3136,200; 2223,100;11460,600; 9,88471
1648,86; 3148,500; 2252,200;11293,600; 9,91329
1652,66; 3122,100; 2239,700;11231,400; 9,81349
1656,44; 3106,600; 2248,900;11068,200; 9,72526
1660,22; 3117,100; 2279,900;10946,100; 9,66052
1664,00; 3122,400; 2293,300;10899,400; 9,63386
1667,77; 3055,100; 2255,400;10706,100; 9,46312
1671,53; 3034,900; 2267,200;10535,100; 9,28531
1675,29; 2970,400; 2218,100;10422,700; 9,16925
1679,05; 2994,000; 2268,300;10347,700; 8,98210
1682,80; 2943,100; 2250,400;10217,700; 8,69429
1686,54; 2953,500; 2284,500;10131,800; 8,52523
1690,28; 2908,300; 2278,500;10016,500; 8,13905
1694,01; 2810,900; 2220,600; 9797,600; 7,79068
1697,74; 2780,100; 2222,200; 9685,200; 7,47555
1701,46; 2782,000; 2264,100; 9639,900; 7,02161
1705,18; 2709,100; 2239,900; 9483,800; 6,47717
1708,89; 2612,300; 2178,500; 9321,400; 6,07316
1712,60; 2663,300; 2263,700; 9310,100; 5,67098
1716,30; 2668,900; 2296,000; 9229,900; 5,37793
1720,00; 2633,700; 2272,600; 9164,500; 5,23948
1723,69; 2615,600; 2274,100; 9040,800; 5,04677
1727,38; 2524,600; 2189,500; 8867,100; 5,01827
1731,06; 2589,500; 2257,500; 8834,400; 5,04797
1734,73; 2582,700; 2236,800; 8714,100; 5,34019
1738,40; 2592,400; 2214,400; 8628,400; 5,89336
1742,07; 2678,000; 2286,100; 8625,700; 6,18178
1745,73; 2650,100; 2245,800; 8533,600; 6,42991
1749,38; 2691,300; 2278,500; 8445,700; 6,69348

